time,angular,velocity
0.0,0.4725,0.0
0.1,0.45041263391109526,-0.43778080414994736
0.2,0.3863703140748842,-0.8328325339114339
0.3,0.28648118373134007,-1.1489935418299588
0.4,0.1602482657110193,-1.355174324126851
0.5,0.019844569811674546,-1.4298864804921145
0.6,-0.12108001690265692,-1.3656752931522178
0.7000000000000001,-0.24892551698522902,-1.1709933131120565
0.8,-0.3516677474744538,-0.8682975066211144
0.9,-0.42004214769386344,-0.4894601083430694
1.0,-0.44823494940878694,-0.07091164939490452
1.1,-0.43415649148423335,0.3496952938073435
1.2,-0.37946668806833106,0.7352393289814693
1.3,-0.2894533040548284,1.0505884055353019
1.4000000000000001,-0.172717125568572,1.2651787865782373
1.5,-0.0405233806945445,1.357027082034507
1.6,0.09427138768099601,1.3168786666047223
1.7,0.2186239357118032,1.1503456468889501
1.8,0.3207596368985952,0.8767153940206566
1.9000000000000001,0.3913608144239578,0.5250686315538415
2.0,0.42431528383206135,0.12973237702939597
2.1,0.4170552290135648,-0.27317580101178146
2.2,0.3706256163796695,-0.647775408998059
2.3000000000000003,0.28958425860145,-0.959984284202862
2.4,0.1817145920182864,-1.1798743583576812
2.5,0.057439512094917974,-1.285253453930055
2.6,-0.07114961812335122,-1.2655126912548063
2.7,-0.19158544477824768,-1.123896347023198
2.8000000000000003,-0.29240384751637716,-0.8768648066976499
2.9,-0.36431936888116634,-0.5508511366716543
3.0,-0.40101287181090495,-0.1780725993453493
3.1,-0.39952600749928496,0.20694220806029062
3.2,-0.36037184254471233,0.5695851967373009
3.3000000000000003,-0.287459245822797,0.8768415888130537
3.4,-0.18783133651291173,1.0994959649856424
3.5,-0.071131622685777,1.2153610725588344
3.6,0.05127965473210557,1.2128302282464456
3.7,0.16751626140765297,1.0931878370247525
3.8000000000000003,0.2664676366068163,0.8703955989562666
3.9,0.3389488160448845,0.5684102729552731
4.0,0.3785116808471013,0.21737213587817877
4.1,0.38188481633768584,-0.14980811275477118
4.2,0.34912380732819415,-0.4998201860333027
4.3,0.2835612197283503,-0.800731177489764
4.4,0.19156962364717914,-1.0240928683908046
4.5,0.08207261034438605,-1.1478830508400522
4.6000000000000005,-0.03426361435098088,-1.1597814746906125
4.7,-0.14612924600991034,-1.0594602342996609
4.8,-0.24279609086830578,-0.8586871726223386
4.9,-0.31523330880711403,-0.5791272982318393
5.0,-0.3569294588750482,-0.2489059242714574
5.1000000000000005,-0.3643679740401012,0.10069010123301494
5.2,-0.33721339988364857,0.4376648590022109
5.3,-0.27828716057625014,0.7311781814835907
5.4,-0.193354390195293,0.953587736882583
5.5,-0.09067432524742056,1.0831567329554264
5.6000000000000005,0.019742673771451454,1.1070775692128023
5.7,0.12715160170684217,1.0237036263352952
5.8,0.22122428385518716,0.8428858022328829
5.9,0.293125294679263,0.5841851906240679
6.0,0.33633456132375683,0.273794595507075
6.1000000000000005,0.34714941665087556,-0.0586094040703789
6.2,0.32490242672133834,-0.38235189682789095
6.3,0.2719622920020156,-0.6676918404975962
6.4,0.19354379039394073,-0.887819675781452
6.5,0.09729336352553603,-1.0213746358953277
6.6000000000000005,-0.007396417863480102,-1.0552418986515142
6.7,-0.11032906250479121,-0.9867028697826611
6.8,-0.2015854615723951,-0.8239392735055194
6.9,-0.27255663426928334,-0.5845919784316044
7.0,-0.31675886339223847,-0.2930170476450943
7.1000000000000005,-0.33035434488495313,0.022689333834195607
7.2,-0.3123959842152594,0.33317009727777186
7.3,-0.26485210120138725,0.609784953714803
7.4,-0.19243870504078162,0.8265750186683318
7.5,-0.10223703655200088,0.9626235211517842
7.6000000000000005,-0.0030589914090871292,1.0046517998419244
7.7,0.09542811463880069,0.9490758274595045
7.8,0.18371672037722617,0.8026276406482223
7.9,0.25344690600507597,0.5812031021166393
8.0,0.298207897120162,0.3074246591654125
8.1,0.3140703942860354,0.007850477941721917
8.2,0.2998537652391969,-0.2894678385439231
8.3,0.2571727903244617,-0.5569872465280198
8.4,0.19029135525595772,-0.7696100857015972
8.5,0.10576933056602622,-0.9069143319396762
8.6,0.011873624187486508,-0.9555716670842868
8.700000000000001,-0.08223646874093027,-0.9113052398122241
8.8,-0.1674624602070169,-0.7795903089596312
8.9,-0.23570925265799286,-0.5747418147387405
9.0,-0.2806683809410814,-0.3177547763203333
9.1,-0.2983561637705743,-0.033700983606778964
9.200000000000001,-0.28739893649543924,0.25065298892974425
9.3,-0.24909980262278308,0.5088528482413891
9.4,-0.18731269403609233,0.7166666199817694
9.5,-0.10811639787367297,0.8542043375205192
9.6,-0.01926682418929801,0.9081789127073044
9.700000000000001,0.07056264416667084,0.8737648125696057
9.8,0.15267646004162613,0.7553491428422532
9.9,0.21925454362062516,0.5658176306571446
10.0,0.26411396472760607,0.3246438538095214
10.1,0.28324800606573186,0.05547139334639194
10.200000000000001,0.275125409629707,-0.216190994925393
10.3,0.24077497345430263,-0.46496466193303543
10.4,0.18367879345797758,-0.6674826726723634
10.5,0.10947155270612532,-0.8044138298162515
10.6,0.02543031440316172,-0.862584490331163
10.700000000000001,-0.06023500649753661,-0.8367406860683929
10.8,-0.13922298850429213,-0.7303283002534369
10.9,-0.20399431120574413,-0.5549427200165068
11.0,-0.2485096054950458,-0.32863971316642426
11.1,-0.2687654068323363,-0.07369696968224246
11.200000000000001,-0.2631037682316956,0.18560196985429406
11.3,-0.23231248203432944,0.4249367360684832
11.4,-0.17953628011053963,0.6218003358401972
11.5,-0.10999968646093587,0.7574386961147831
11.6,-0.03053118216292698,0.8188488275341872
11.700000000000001,0.05110043944920825,0.8004486892947612
11.8,0.12697714859464854,0.7048707747363092
11.9,0.18984263171514065,0.5425464230903504
12.0,0.2338147593347491,0.330213134303799
12.1,0.25491517728730534,0.08884713616024797
12.200000000000001,0.2513860793331263,-0.15845629305995673
12.3,0.22380390609710601,-0.38841406768249953
12.4,0.17500718875617446,-0.5793702996505985
12.5,0.10984142698659038,-0.7131595694691855
12.6,0.03471492546807939,-0.7769945882936975
12.700000000000001,-0.043022698431066944,-0.7650489970267895
12.8,-0.11582476894323308,-0.6792528913421748
12.9,-0.17671741807408345,-0.5289877965280955
13.0,-0.21998578708549643,-0.329767615765208
13.1,-0.24169467812376888,-0.10133236219769728
13.200000000000001,-0.2400096457825771,0.13437099832108843
13.3,-0.21532214915037612,0.35507244969876817
13.4,-0.1701927142588009,0.5399551725195426
13.5,-0.10911639296480664,0.6714484724374641
13.6,-0.03810790488898245,0.7370160511084899
13.700000000000001,0.035880984680893915,0.7306570581289255
13.8,0.10566205374158782,0.6536954958556019
13.9,0.1645411401238271,0.5145661072619825
14.0,0.2069776632025071,0.3276483852083854
14.1,0.22909432476675887,0.11151099326363748
14.200000000000001,0.2290000921759969,-0.11300522990277506
14.3,0.20692486507090224,-0.3246168324761756
14.4,0.16517665180063362,-0.5033312096269809
14.5,0.10792628828755518,-0.6321738961627168
14.6,0.040819780870478384,-0.6988868346840014
14.700000000000001,-0.029568363346268094,-0.6973530106005756
14.8,-0.09639498098471688,-0.6283739418376427
14.9,-0.15324118872276368,-0.49953024254635525
15.0,-0.19474520704464693,-0.3241505159742527
15.1,-0.21709955633204217,-0.11969567897725808
15.200000000000001,-0.21837384893245704,0.09405615626056348
15.3,-0.1986572120412177,0.2967794587079762
15.4,-0.1600282078523491,0.46928882339038636
15.5,-0.1063575347764883,0.595203953929801
15.6,-0.042945700435097135,0.6625656176226675
15.700000000000001,0.023990264375409923,0.6651891638064917
15.8,0.087938614284935,0.603426252365542
15.9,0.14275003919891968,0.4840865888803765
16.0,0.183244013120141,0.3195256958110018
16.1,0.20569236781704392,0.12615854446468622
16.2,0.20814013282674926,-0.07725537661661527
16.3,0.19055410802892397,-0.27131835070541144
16.4,0.15480429645470212,-0.4376333627320126
16.5,0.10448338260632803,-0.560409170221309
16.6,0.04456805968961969,-0.6280005441031254
16.7,-0.01906320695004901,-0.634195714288421
16.8,-0.08021642015890605,-0.5789595494489904
16.9,-0.1330051688441773,-0.468405564515847
17.0,-0.17243097341323124,-0.31398838027520104
17.1,-0.1948524045366369,-0.13113658153490704
17.2,-0.19830251654013245,0.062364828583768316
17.3,-0.18264212804605542,0.24801480028425044
17.400000000000002,-0.14955159862896958,0.40818438778692256
17.5,-0.10236594307725767,0.5276638219658466
17.6,-0.0457582804259452,0.5951326570967586
17.7,0.014713460152037165,0.6043856735322782
17.8,0.07315946887357058,0.5550558189968492
17.900000000000002,0.12394887413071656,0.45262745602253807
18.0,0.16226467403628755,0.3077211067211118
18.1,0.18455784852571278,0.13483600058561815
18.2,0.18886019654932004,-0.04917357720176156
18.3,0.17494103363830182,-0.22667144632726313
18.400000000000002,0.14430821357138007,-0.38077523834848054
18.5,0.10005780295082049,-0.49684711516890095
18.6,0.046578226851588134,-0.5638985556206662
18.7,-0.010875964559057533,-0.5757587478940894
18.8,-0.06670581055842405,-0.5317764696897547
18.900000000000002,-0.11552812270335854,-0.4368670961505879
19.0,-0.15270569762973096,-0.3008788753415281
19.1,-0.17478613048974506,-0.13743599198409967
19.2,-0.1798090360328385,0.037494940330147414
19.3,-0.16746504534449683,0.20711048068096838
19.400000000000002,-0.1391050467765193,0.35525250860507257
19.5,-0.09760339832409434,0.4678439609348811
19.6,-0.0470814639847503,0.5342323201514111
19.7,0.00749329404803205,0.5483042706317747
19.8,0.06079974384585865,0.5091660477261715
19.900000000000002,0.10769418726785805,0.42121804698109355
20.0,0.14371668362515527,0.2935932225313755
20.1,0.16551437824598442,0.13909235970046524
20.2,0.17114234458777808,-0.027163544842831486
20.3,0.1602238747130864,-0.18917161374427702
20.400000000000002,0.13396698436657675,-0.33147504806780087
20.5,0.09504021977301096,-0.440545119409824
20.6,0.04731435476864896,-0.50606688827508
20.7,-0.004514773131553648,-0.5220035664572109
20.8,-0.055391180435182485,-0.48725513173657065
20.900000000000002,-0.10040232160693094,-0.40575568123443845
21.0,-0.1352622957454508,-0.28597539422268187
21.1,-0.15671968931537333,-0.13994049435972092
21.2,-0.16285142937986619,0.018032792653536196
21.3,-0.153223505944612,0.17271018656723425
21.400000000000002,-0.128913875838542,0.3093129370400574
21.5,-0.0923999156465024,0.414847237335649
21.6,-0.04731717836184086,0.4793352931371122
21.7,0.0018954972428473875,0.4968323209489192
21.8,0.05043501549303202,0.46606378421265565
21.900000000000002,0.09361153330130455,0.39054106057041243
22.0,0.12730940916114158,0.2781200110011602
22.1,0.14837966774604697,0.14009848126231966
22.2,0.1549264035567861,-0.009972530518054416
22.3,0.14646717547351415,-0.1575957369052044
22.400000000000002,0.12396150406898163,-0.28864695998007783
22.5,0.08970912757966738,-0.39065314578003624
22.6,0.04712475529069709,-0.45397143531941897
22.7,0.0004041041313449789,-0.47276166947746884
22.8,-0.0458907792528485,-0.44560249002958535
22.900000000000002,-0.08728430700292147,-0.3756219294800325
23.0,-0.11982691268552041,-0.2701062222616302
23.1,-0.1404723401956933,-0.13966835505256117
23.2,-0.1473562308341654,0.002867776803083255
23.3,-0.13995555658747122,0.14371085016984483
23.400000000000002,-0.11912197338920055,0.269367792500601
23.5,-0.08699008307871696,0.36787154693803154
23.6,-0.04676718927428695,0.42991063322322626
23.7,-0.0024190130770572063,0.44975963004804204
23.8,0.04172204781153068,0.4258745942069527
23.900000000000002,0.08138628357747996,0.36103568798740915
24.0,0.11278570421454176,0.26200074989401767
24.1,0.13297644728954156,0.1387388956592946
24.2,0.14012927206628634,0.0033835574479236363
24.3,0.13368749475512542,-0.13094952253375824
24.400000000000002,0.11440453250180767,-0.25137502674447426
24.5,0.08426141078959704,-0.34641678809886467
24.6,0.04627060022030473,-0.4070900173474579
24.7,0.004180247843428882,-0.42779204715096986
24.8,-0.03789594741072238,-0.4068775934103069
24.900000000000002,-0.07588590552542582,-0.34681098377033887
25.0,-0.10615850375438385,-0.2538596427279959
25.1,-0.1258714350224785,-0.1373873899146333
25.2,-0.13323344824066372,-0.008872327727639299
25.3,-0.12766032436932082,0.11921578414034795
25.400000000000002,-0.10981600172426881,0.2345762915567483
25.5,-0.08153862926704476,0.3262085379362915
25.6,-0.04565761140959298,0.3854488235679905
25.7,-0.005715271553486476,0.40682344460134295
25.8,0.03438288432485091,0.3886043699524788
25.900000000000002,0.07075429994626099,0.33296907216995764
26.0,0.09991987484371968,0.24572962645694318
26.1,0.11913760388372908,0.13568084206148975
26.2,0.12665649892299152,0.013679114120552666
26.3,0.12187020927997802,-0.10842301753113742
26.400000000000002,0.10536118394344264,-0.21888680037558955
26.5,0.07883461135962347,-0.30717161121555686
26.6,0.044947844901205035,-0.36492853409620235
26.7,0.007048498035333119,-0.3868175289284453
26.8,-0.03115606317009492,-0.37104414745709297
26.900000000000002,-0.06596490181269597,-0.3195251830228558
27.0,-0.0940459917397728,-0.23764973234757214
27.1,-0.1127560455290303,-0.13367768657908036
27.2,-0.12038608840240926,-0.01787583928193419
27.3,-0.11631240069676843,0.09849259783169555
27.400000000000002,-0.10104322575736402,0.20422844857878664
27.5,-0.0761599767776246,0.2892356255045192
27.6,-0.044158286737030955,0.3454730561662724
27.7,-0.008201570849869914,0.3677377787928956
27.8,0.028191316980247093,0.35418321711978573
27.900000000000002,0.0614933600234178,0.30648929645928036
28.0,0.08851462968047047,0.22965205659818294
28.1,0.10670870463554458,0.1314284855036249
28.2,0.11440993034953524,0.021526402631202694
28.3,0.11098141935462129,-0.08935339336316994
28.400000000000002,0.09686385284765239,-0.1905294237607649
28.5,0.07352339067742752,-0.2723347179816877
28.6,0.04330363197359341,-0.3270286638225177
28.7,0.00919373291977664,-0.3495477085128187
28.8,-0.025466766243560902,-0.33800567681168925
28.900000000000002,-0.057317291427443295,-0.293867212136311
29.0,-0.08330503411877307,-0.22176298013386306
29.1,-0.10097837612060233,-0.12897713723464876
29.2,-0.10871590516014999,-0.024687712800422767
29.3,-0.10587126015248981,0.08094084964372872
29.400000000000002,-0.0928236447028485,0.17772353245398284
29.5,-0.07093188193691452,0.256407194386092
29.6,-0.04239660591606571,0.3095440132209474
29.7,-0.010042118935214605,0.3322111849264927
29.8,0.022962567505856676,0.322493959105281
29.900000000000002,0.0534160907005012,0.28166128885439246
30.0,0.0783978087235599,0.214004066794366
30.1,0.09554867806641834,0.1263618784961625
30.2,0.10329212584519681,0.027410747093034368
30.3,0.10097557116323953,-0.0731962370382986
30.400000000000002,0.08892228784454431,-0.16574974999825587
30.5,0.06839111673062134,-0.24139540806535778
30.6,0.041448244800439835,-0.2929702458917189
30.7,0.010762015317413701,-0.3156927942994932
30.8,-0.02066071001788434,-0.307629365396867
30.900000000000002,-0.04977078339441257,-0.2698710527195645
31.0,-0.07377483565452196,-0.20639270274391525
31.1,-0.09040404458107602,-0.12361586676323338
31.2,-0.09812699267395276,-0.02974098497066541
31.3,-0.0962877361228634,0.06606614356999978
31.400000000000002,-0.08515869618428785,0.15455172611014348
31.5,-0.06590557047957482,0.22724535512270633
31.6,-0.04046809180884379,0.27726081269159414
31.7,-0.01136705908803045,0.2999578578025322
31.8,0.018544822474104487,0.2933923285483662
31.900000000000002,0.04636387228902105,0.2584936838019651
32.0,0.06941917632613376,0.19894271908812733
32.1,0.0855296873268743,0.12076788553504367
32.2,0.09320922189408906,0.0317191500281159
32.3,0.09180097802873033,-0.05950186317496239
32.4,0.08153117041011546,-0.14407741463961174
32.5,0.06347871217669834,-0.21390649145642207
32.6,0.039464393301701595,-0.26237143493729714
32.7,0.011869426459261052,-0.2849725818882616
32.8,-0.01660001287319304,-0.27976267820355194
32.9,-0.043179209094513955,-0.24752438902925908
33.0,-0.06531498464020129,-0.1916648504984926
33.1,-0.0809115605860022,-0.1178428172639088
33.2,-0.08852785991015016,-0.033381645741049744
33.3,-0.08750841665980029,0.05345906114425975
33.4,-0.07803748978466563,0.13427872401494167
33.5,-0.06111313183932314,0.20133148450573682
33.6,-0.038444247105231984,0.24826003221998796
33.7,-0.012279991946790868,0.2707041519527297
33.8,0.014812721317588009,0.2667199552212358
33.9,0.04020188625826268,0.23695685309351566
34.0,0.061447448519770693,0.18456724968877344
34.1,0.07653634931272606,0.11486221432489152
34.2,0.08407232536939269,0.034761123588383264
34.300000000000004,0.0834031539714664,-0.04789714121966384
34.4,0.07467505038653334,-0.12511099210509521
34.5,0.05881071734514144,-0.1894758770844142
34.6,0.03741380059481557,-0.23488657645254574
34.7,0.012608526564944003,-0.25712078331876886
34.800000000000004,-0.013170538336334284,-0.25424362423979613
34.9,-0.03741808410871391,-0.22678359468515286
35.0,-0.05780267815019177,-0.17765596586482624
35.1,-0.07239141554611743,-0.11184480024934906
35.2,-0.07983240589336675,-0.035887002365635474
35.300000000000004,-0.07947834114803823,0.04277897552617693
35.4,-0.07144096025797361,0.11653291097020489
35.5,-0.05657275589322626,0.1782980625515452
35.6,-0.03637834975838653,0.2222131234704594
35.7,-0.012863781511122737,0.24419181740507384
35.800000000000004,0.011662136810611606,0.2423132018543911
35.9,0.034815017880345134,0.2169961532643693
36.0,0.05436767437234824,0.17093516133878203
36.1,0.068464785682832,0.10880671966593475
36.2,0.0757982734252062,0.03678565796968539
36.300000000000004,0.07572719082574125,-0.038070562069361276
36.4,0.06833207639396836,-0.10850611680296508
36.5,0.05440000679094292,-0.16775897449467245
36.6,0.03534243970571534,-0.2102036230231874
36.7,0.01305360967225238,-0.23188766759937476
36.800000000000004,-0.010277148345073588,-0.23090836456966893
36.9,-0.032380830569814584,-0.20758530366610192
37.0,-0.05113024430712166,-0.16440740385717947
37.1,-0.06474509300847621,-0.10576187063217732
37.2,-0.07196045395519757,-0.037480803725352854
37.300000000000004,-0.07214298818267445,0.033740706202663714
37.4,-0.06534504553072966,0.1009949333125218
37.5,-0.052292760355758555,0.15782185244758104
37.6,-0.034309939988493826,0.1988237307604473
37.7,-0.013185053864971343,0.2201796882000528
37.800000000000004,0.009006065278917175,0.2200088821527586
37.9,0.030104493111699288,0.19854112671800983
38.0,0.04807892391144581,0.15807387841896858
38.1,0.06122155456891778,0.10272223101706603
38.2,0.06830986664358936,0.03799387489929536
38.300000000000004,0.06871920315960175,-0.029760726361198128
38.4,0.062476479126670946,-0.093966270188336
38.5,0.050251047106858876,-0.1484523743810361
38.6,0.03328425260374075,-0.18804120707020408
38.7,0.013264516887564482,-0.20904083487081448
38.800000000000004,-0.007840157675719779,-0.20959549269397076
38.9,-0.027975821740553016,-0.18985378664364289
39.0,-0.04520305764023894,-0.15193498325087132
39.1,-0.05788404847141527,-0.09969821512981064
39.2,-0.06483787173415373,-0.03834417808483314
39.300000000000004,-0.06544947422007538,0.026104332198702618
39.4,-0.0597228676929452,0.08738937096400363
39.5,-0.04827451622918833,0.13961824689839855
39.6,-0.0322681877001243,0.1778252850606795
39.7,-0.01329766464742334,0.1984447835540867
39.800000000000004,0.006771443610788175,0.19964874624245077
39.9,0.02598530144655749,0.18151261276496955
40.0,0.04249253291092313,0.14598973478285537
40.1,0.05472284877768519,0.09669848708290556
40.2,0.061536057310724146,0.03854905111692891
40.300000000000004,0.062327489309203496,-0.022747269243561904
40.4,0.05708057877856538,-0.08123542288211519
40.5,0.04636253539478158,-0.1312888825226601
40.6,0.03126414837195116,-0.1681465524243067
40.7,0.013289681495351282,-0.18836615776323495
40.800000000000004,-0.00579251798521049,-0.19014983105813008
40.9,-0.024124059006233246,-0.17350707287696848
41.0,-0.03993788878858806,-0.14023670642914254
